#     TEMP:   ACTUAL_TE:    TE_AVE:      ERROR:
           1    -3.83799    -3.83799           0
           2    -3.83777    -3.83788 7.50811e-05
           3    -3.83756    -3.83777 0.000100027
           4    -3.83735    -3.83767 0.000118652
           5    -3.83714    -3.83756 0.000134428
           6    -3.83692    -3.83745 0.000148564
           7     -3.8367    -3.83735 0.000161653
           8    -3.83648    -3.83724 0.000174046
           9    -3.83625    -3.83713 0.000185974
          10    -3.83602    -3.83702 0.000197601
          11    -3.83579    -3.83691 0.000209054
          12    -3.83554    -3.83679 0.000220431
          13    -3.83499    -3.83665 0.000243214
          14    -3.83473    -3.83652 0.000261709
          15    -3.83431    -3.83637   0.0002825
          16    -3.83359     -3.8362 0.000313876
          17    -3.83285      -3.836 0.000351812
          18    -3.83225    -3.83579 0.000389053
          19    -3.83179    -3.83558 0.000421757
          20    -3.83086    -3.83534 0.000461951
          21    -3.83038    -3.83511 0.000496872
          22    -3.82942    -3.83485  0.00053733
          23     -3.8286    -3.83458 0.000578547
          24    -3.82747    -3.83428 0.000625706
          25    -3.82647    -3.83397 0.000674252
          26    -3.82545    -3.83364 0.000723606
          27    -3.82426    -3.83329 0.000775756
          28    -3.82305    -3.83293 0.000829814
          29    -3.82198    -3.83255 0.000882917
          30    -3.82058    -3.83215 0.000939262
          31    -3.81932    -3.83174 0.000996005
          32    -3.81788     -3.8313   0.0010548
          33    -3.81642    -3.83085  0.00111509
          34    -3.81539     -3.8304  0.00117135
          35    -3.81434    -3.82994  0.00122444
          36    -3.81357    -3.82949  0.00127206
          37    -3.81218    -3.82902  0.00132086
          38    -3.81092    -3.82854  0.00136928
          39    -3.80964    -3.82806  0.00141736
          40    -3.80774    -3.82755  0.00147014
          41    -3.80642    -3.82703  0.00152194
          42    -3.80494    -3.82651  0.00157402
          43    -3.80374    -3.82598  0.00162401
          44    -3.80254    -3.82544  0.00167219
          45    -3.80148    -3.82491  0.00171776
          46    -3.80056    -3.82438   0.0017601
          47     -3.8001    -3.82387   0.0017969
          48    -3.79949    -3.82336  0.00182982
          49    -3.79874    -3.82286  0.00186018
          50    -3.79785    -3.82236  0.00188902
          51    -3.79697    -3.82186  0.00191642
          52    -3.79612    -3.82136  0.00194241
          53    -3.79515    -3.82087  0.00196772
          54    -3.79466    -3.82038  0.00199023
          55    -3.79361     -3.8199   0.0020127
          56    -3.79366    -3.81943  0.00203057
          57     -3.7936    -3.81897  0.00204486
          58    -3.79285    -3.81852  0.00205862
          59     -3.7923    -3.81808  0.00207117
          60    -3.79241    -3.81765  0.00208036
          61    -3.79214    -3.81723  0.00208788
          62    -3.79177    -3.81682  0.00209421
          63    -3.79162    -3.81642  0.00209882
          64    -3.79215    -3.81604  0.00210003
          65    -3.79213    -3.81568  0.00209969
          66    -3.79248    -3.81532  0.00209708
          67    -3.79245    -3.81498  0.00209339
          68    -3.79262    -3.81465  0.00208827
          69    -3.79301    -3.81434  0.00208143
          70    -3.79361    -3.81404  0.00207266
          71    -3.79381    -3.81376  0.00206297
          72    -3.79467    -3.81349  0.00205127
          73    -3.79544    -3.81325  0.00203803
          74     -3.7955    -3.81301  0.00202455
          75    -3.79576    -3.81278  0.00201057
          76    -3.79698    -3.81257  0.00199482
          77     -3.7981    -3.81238  0.00197774
          78    -3.79912    -3.81221  0.00195968
          79    -3.79973    -3.81205  0.00194123
          80    -3.80099    -3.81192  0.00192189
          81      -3.802    -3.81179  0.00190206
          82    -3.80305    -3.81169  0.00188185
          83    -3.80414     -3.8116  0.00186137
          84    -3.80512    -3.81152  0.00184081
          85    -3.80568    -3.81145  0.00182043
          86    -3.80704     -3.8114  0.00179999
          87    -3.80859    -3.81137  0.00177959
          88    -3.80971    -3.81135  0.00175946
          89    -3.81116    -3.81135   0.0017397
          90    -3.81247    -3.81136  0.00172041
          91    -3.81395    -3.81139  0.00170174
          92    -3.81544    -3.81143  0.00168381
          93    -3.81723    -3.81149  0.00166686
          94    -3.81841    -3.81157  0.00165075
          95    -3.81956    -3.81165  0.00163552
          96    -3.82069    -3.81174  0.00162119
          97    -3.82178    -3.81185  0.00160778
          98    -3.82253    -3.81196  0.00159507
          99    -3.82338    -3.81207  0.00158312
         100    -3.82431    -3.81219  0.00157201
         101    -3.82548    -3.81233  0.00156194
         102    -3.82642    -3.81246  0.00155272
         103    -3.82759    -3.81261  0.00154457
         104    -3.82792    -3.81276  0.00153672
         105    -3.82862    -3.81291   0.0015295
         106    -3.82864    -3.81306  0.00152225
         107    -3.82918    -3.81321  0.00151546
         108     -3.8301    -3.81336  0.00150948
         109    -3.83063    -3.81352  0.00150392
         110    -3.83064    -3.81368  0.00149828
         111    -3.83119    -3.81384  0.00149307
         112    -3.83138    -3.81399  0.00148793
         113    -3.83152    -3.81415  0.00148282
         114    -3.83145     -3.8143  0.00147756
         115    -3.83135    -3.81445  0.00147214
         116    -3.83107    -3.81459   0.0014664
         117    -3.83105    -3.81473   0.0014606
         118    -3.83087    -3.81487  0.00145461
         119    -3.83083      -3.815  0.00144856
         120    -3.83092    -3.81514  0.00144255
         121    -3.83071    -3.81526  0.00143636
         122     -3.8308    -3.81539  0.00143022
         123    -3.83029    -3.81551  0.00142371
         124    -3.82994    -3.81563  0.00141698
         125     -3.8302    -3.81575  0.00141043
         126    -3.83048    -3.81586  0.00140408
         127    -3.83046    -3.81598  0.00139772
         128    -3.83016    -3.81609  0.00139119
         129    -3.83003     -3.8162  0.00138459
         130     -3.8296     -3.8163  0.00137777
         131     -3.8295     -3.8164  0.00137094
         132    -3.82971     -3.8165  0.00136425
         133    -3.82979     -3.8166  0.00135765
         134    -3.82958     -3.8167  0.00135097
         135    -3.82922    -3.81679  0.00134414
         136    -3.82918    -3.81688  0.00133734
         137      -3.829    -3.81697   0.0013305
         138    -3.82852    -3.81705  0.00132349
         139    -3.82864    -3.81714  0.00131659
         140    -3.82832    -3.81722   0.0013096
         141     -3.8289     -3.8173  0.00130294
         142    -3.82873    -3.81738  0.00129624
         143     -3.8287    -3.81746  0.00128959
         144    -3.82927    -3.81754  0.00128324
         145    -3.82894    -3.81762   0.0012768
         146    -3.82876     -3.8177  0.00127033
         147    -3.82887    -3.81777  0.00126396
         148    -3.82867    -3.81785  0.00125756
         149    -3.82833    -3.81792  0.00125109
         150    -3.82828    -3.81799  0.00124465
         151    -3.82823    -3.81805  0.00123826
         152    -3.82818    -3.81812   0.0012319
         153    -3.82859    -3.81819  0.00122575
         154     -3.8287    -3.81826  0.00121969
         155    -3.82867    -3.81832  0.00121367
         156    -3.82819    -3.81839  0.00120753
         157    -3.82832    -3.81845   0.0012015
         158    -3.82802    -3.81851  0.00119542
         159    -3.82818    -3.81857  0.00118945
         160     -3.8282    -3.81863  0.00118353
         161    -3.82808    -3.81869  0.00117764
         162    -3.82873    -3.81875    0.001172
         163    -3.82954    -3.81882  0.00116667
         164    -3.82961    -3.81889  0.00116141
         165    -3.82938    -3.81895  0.00115612
         166    -3.82991    -3.81901  0.00115103
         167    -3.83059    -3.81908  0.00114623
         168    -3.83081    -3.81915  0.00114153
         169    -3.83118    -3.81922  0.00113699
         170    -3.83123     -3.8193  0.00113249
         171    -3.83081    -3.81936  0.00112786
         172    -3.83068    -3.81943  0.00112322
         173    -3.83083    -3.81949  0.00111866
         174     -3.8308    -3.81956  0.00111412
         175     -3.8306    -3.81962  0.00110953
         176    -3.83007    -3.81968  0.00110482
         177    -3.83042    -3.81974  0.00110024
         178     -3.8306     -3.8198  0.00109575
         179    -3.83015    -3.81986  0.00109115
         180    -3.82967    -3.81992  0.00108644
         181    -3.82903    -3.81997  0.00108161
         182    -3.82883    -3.82001  0.00107676
         183    -3.82892    -3.82006  0.00107198
         184    -3.82855    -3.82011  0.00106714
         185    -3.82788    -3.82015   0.0010622
         186    -3.82751    -3.82019  0.00105723
         187    -3.82684    -3.82023  0.00105217
         188    -3.82663    -3.82026  0.00104712
         189    -3.82629    -3.82029  0.00104207
         190    -3.82626    -3.82032  0.00103706
         191    -3.82579    -3.82035  0.00103202
         192    -3.82535    -3.82038  0.00102698
         193    -3.82523     -3.8204  0.00102196
         194    -3.82467    -3.82043  0.00101693
         195    -3.82399    -3.82044  0.00101188
         196    -3.82394    -3.82046  0.00100688
         197    -3.82346    -3.82048  0.00100188
         198    -3.82375    -3.82049 0.000996956
         199    -3.82346    -3.82051 0.000992057
         200     -3.8238    -3.82053 0.000987233
         201      -3.824    -3.82054 0.000982473
         202    -3.82422    -3.82056 0.000977778
         203    -3.82446    -3.82058  0.00097315
         204    -3.82426     -3.8206 0.000968547
         205    -3.82423    -3.82062 0.000963985
         206    -3.82421    -3.82063 0.000959463
         207    -3.82435    -3.82065 0.000954997
         208    -3.82436    -3.82067 0.000950572
         209    -3.82422    -3.82069 0.000946175
         210    -3.82439     -3.8207 0.000941835
         211    -3.82413    -3.82072 0.000937511
         212    -3.82417    -3.82074  0.00093323
         213    -3.82468    -3.82075 0.000929032
         214    -3.82489    -3.82077 0.000924892
         215    -3.82542     -3.8208 0.000920843
         216    -3.82566    -3.82082 0.000916855
         217    -3.82621    -3.82084 0.000912967
         218    -3.82587    -3.82087  0.00090907
         219    -3.82599    -3.82089  0.00090522
         220    -3.82582    -3.82091 0.000901383
         221    -3.82597    -3.82093 0.000897594
         222    -3.82657    -3.82096  0.00089391
         223    -3.82673    -3.82099 0.000890276
         224    -3.82704    -3.82101 0.000886712
         225    -3.82781    -3.82104 0.000883285
         226    -3.82767    -3.82107 0.000879863
         227    -3.82843     -3.8211 0.000876584
         228    -3.82812    -3.82114 0.000873279
         229    -3.82825    -3.82117 0.000870018
         230    -3.82866     -3.8212 0.000866845
         231    -3.82844    -3.82123 0.000863659
         232    -3.82865    -3.82126 0.000860529
         233    -3.82944     -3.8213  0.00085755
         234    -3.82973    -3.82133 0.000854643
         235    -3.83029    -3.82137 0.000851856
         236    -3.83067    -3.82141 0.000849156
         237    -3.83039    -3.82145 0.000846419
         238    -3.83038    -3.82149 0.000843694
         239    -3.83034    -3.82152 0.000840976
         240    -3.83011    -3.82156 0.000838232
         241    -3.83014     -3.8216  0.00083551
         242    -3.83045    -3.82163 0.000832858
         243    -3.83073    -3.82167 0.000830271
         244    -3.83068    -3.82171 0.000827689
         245     -3.8306    -3.82174 0.000825107
         246    -3.83067    -3.82178  0.00082255
         247    -3.83041    -3.82181 0.000819962
         248    -3.83015    -3.82185 0.000817344
         249    -3.82972    -3.82188 0.000814673
         250    -3.82915    -3.82191 0.000811933
         251    -3.82872    -3.82193 0.000809152
         252    -3.82876    -3.82196 0.000806394
         253    -3.82849    -3.82199  0.00080362
         254    -3.82778    -3.82201 0.000800779
         255    -3.82768    -3.82203 0.000797948
         256    -3.82759    -3.82205 0.000795126
         257    -3.82737    -3.82208 0.000792301
         258    -3.82745     -3.8221 0.000789504
         259    -3.82756    -3.82212 0.000786737
         260    -3.82707    -3.82214 0.000783942
         261    -3.82689    -3.82215  0.00078115
         262    -3.82658    -3.82217 0.000778351
         263    -3.82628    -3.82219 0.000775548
         264    -3.82599     -3.8222 0.000772745
         265    -3.82572    -3.82221 0.000769943
         266    -3.82531    -3.82223 0.000767136
         267    -3.82521    -3.82224 0.000764344
         268    -3.82527    -3.82225 0.000761575
         269    -3.82549    -3.82226 0.000758839
         270    -3.82526    -3.82227  0.00075611
         271     -3.8255    -3.82228 0.000753414
         272    -3.82529    -3.82229 0.000750725
         273    -3.82508    -3.82231 0.000748045
         274    -3.82519    -3.82232 0.000745388
         275    -3.82499    -3.82233 0.000742741
         276    -3.82434    -3.82233 0.000740086
         277      -3.824    -3.82234 0.000737439
         278    -3.82351    -3.82234 0.000734798
         279    -3.82362    -3.82235 0.000732179
         280    -3.82404    -3.82235 0.000729589
         281     -3.8243    -3.82236 0.000727026
         282    -3.82456    -3.82237 0.000724489
         283    -3.82466    -3.82238 0.000721974
         284      -3.824    -3.82238 0.000719455
         285     -3.8235    -3.82239 0.000716941
         286    -3.82359    -3.82239 0.000714447
         287    -3.82307    -3.82239 0.000711961
         288      -3.823    -3.82239 0.000709492
         289    -3.82293     -3.8224  0.00070704
         290      -3.823     -3.8224 0.000704605
         291    -3.82261     -3.8224 0.000702184
         292    -3.82297     -3.8224 0.000699782
         293    -3.82272     -3.8224 0.000697394
         294    -3.82292     -3.8224 0.000695025
         295    -3.82236     -3.8224 0.000692669
         296    -3.82209     -3.8224 0.000690329
         297    -3.82183     -3.8224 0.000688008
         298    -3.82201     -3.8224   0.0006857
         299    -3.82175     -3.8224  0.00068341
         300    -3.82133    -3.82239 0.000681142
         301    -3.82076    -3.82239   0.0006789
         302    -3.82034    -3.82238 0.000676686
         303    -3.82023    -3.82237  0.00067449
         304    -3.81998    -3.82237 0.000672317
         305    -3.81958    -3.82236 0.000670175
         306    -3.81995    -3.82235 0.000668031
         307    -3.82017    -3.82234 0.000665893
         308    -3.81995    -3.82233 0.000663776
         309    -3.81989    -3.82233 0.000661675
         310    -3.81939    -3.82232 0.000659608
         311    -3.81919    -3.82231 0.000657564
         312    -3.81916     -3.8223 0.000655533
         313    -3.81899    -3.82229 0.000653524
         314    -3.81912    -3.82228 0.000651521
         315    -3.81881    -3.82227 0.000649546
         316    -3.81895    -3.82226 0.000647575
         317     -3.8188    -3.82224 0.000645624
         318    -3.81864    -3.82223 0.000643693
         319    -3.81864    -3.82222 0.000641773
         320    -3.81849    -3.82221 0.000639874
         321    -3.81879     -3.8222 0.000637969
         322    -3.81879    -3.82219 0.000636075
         323    -3.81863    -3.82218 0.000634201
         324    -3.81817    -3.82217 0.000632365
         325    -3.81845    -3.82215 0.000630522
         326    -3.81798    -3.82214 0.000628718
         327    -3.81857    -3.82213  0.00062689
         328    -3.81825    -3.82212  0.00062509
         329    -3.81838    -3.82211 0.000623294
         330    -3.81881     -3.8221 0.000621485
         331     -3.8191    -3.82209 0.000619673
         332    -3.81909    -3.82208 0.000617873
         333    -3.81908    -3.82207 0.000616083
         334    -3.81863    -3.82206 0.000614325
         335    -3.81864    -3.82205 0.000612576
         336    -3.81867    -3.82204 0.000610835
         337    -3.81841    -3.82203 0.000609117
         338    -3.81817    -3.82202 0.000607422
         339     -3.8178      -3.822 0.000605758
         340     -3.8173    -3.82199 0.000604134
         341    -3.81712    -3.82198 0.000602532
         342    -3.81726    -3.82196 0.000600928
         343    -3.81773    -3.82195 0.000599303
         344    -3.81791    -3.82194 0.000597675
         345    -3.81842    -3.82193  0.00059603
         346    -3.81895    -3.82192 0.000594369
         347    -3.81829    -3.82191 0.000592749
         348    -3.81885     -3.8219  0.00059111
         349    -3.81883    -3.82189 0.000589482
         350    -3.81897    -3.82188 0.000587857
         351    -3.81941    -3.82188 0.000586225
         352    -3.81957    -3.82187 0.000584596
         353    -3.81988    -3.82186 0.000582967
         354    -3.82004    -3.82186 0.000581343
         355    -3.82065    -3.82186 0.000579715
         356    -3.82096    -3.82185 0.000578092
         357    -3.82157    -3.82185 0.000576474
         358    -3.82157    -3.82185 0.000574864
         359    -3.82232    -3.82185 0.000573264
         360     -3.8223    -3.82185 0.000571673
         361    -3.82256    -3.82186 0.000570093
         362    -3.82266    -3.82186 0.000568522
         363     -3.8229    -3.82186 0.000566963
         364    -3.82282    -3.82186 0.000565412
         365    -3.82241    -3.82187 0.000563865
         366    -3.82305    -3.82187 0.000562333
         367    -3.82306    -3.82187  0.00056081
         368    -3.82335    -3.82188 0.000559301
         369    -3.82362    -3.82188 0.000557805
         370    -3.82311    -3.82188 0.000556307
         371    -3.82303    -3.82189 0.000554816
         372    -3.82294    -3.82189 0.000553332
         373    -3.82298    -3.82189 0.000551856
         374    -3.82284     -3.8219 0.000550387
         375    -3.82284     -3.8219 0.000548925
         376    -3.82267     -3.8219 0.000547469
         377    -3.82234     -3.8219 0.000546018
         378    -3.82214     -3.8219 0.000544574
         379    -3.82162     -3.8219 0.000543137
         380    -3.82155     -3.8219 0.000541709
         381    -3.82176     -3.8219 0.000540287
         382    -3.82197     -3.8219 0.000538873
         383    -3.82171     -3.8219 0.000537466
         384    -3.82129     -3.8219 0.000536069
         385    -3.82147     -3.8219 0.000534677
         386    -3.82119    -3.82189 0.000533295
         387     -3.8206    -3.82189 0.000531928
         388    -3.82076    -3.82189 0.000530565
         389    -3.82016    -3.82188 0.000529219
         390    -3.81985    -3.82188 0.000527888
         391    -3.81939    -3.82187 0.000526576
         392    -3.81967    -3.82187 0.000525263
         393    -3.81964    -3.82186 0.000523957
         394    -3.81945    -3.82186 0.000522663
         395     -3.8197    -3.82185 0.000521368
         396    -3.81964    -3.82184 0.000520081
         397    -3.81958    -3.82184 0.000518803
         398     -3.8192    -3.82183 0.000517542
         399    -3.81911    -3.82182  0.00051629
         400    -3.81841    -3.82182 0.000515069
         401    -3.81786    -3.82181  0.00051388
         402     -3.8179     -3.8218 0.000512693
         403    -3.81779    -3.82179 0.000511518
         404    -3.81691    -3.82177 0.000510394
         405     -3.8168    -3.82176 0.000509281
         406    -3.81684    -3.82175 0.000508171
         407    -3.81659    -3.82174 0.000507081
